# dimensionless total [l(l+1)/2pi] C_l's
# for l=2 to 3000, i.e. number of multipoles equal to 2999
#
# -> if you prefer output in CAMB/HealPix/LensPix units/order, set 'format' to 'camb' in input file
# -> if you don't want to see such a header, set 'headers' to 'no' in input file
# -> for CMB lensing (phi), these are C_l^phi-phi for the lensing potential.
#    Remember the conversion factors:
#    C_l^dd (deflection) = l(l+1) C_l^phi-phi
#    C_l^gg (shear/convergence) = 1/4 (l(l+1))^2 C_l^phi-phi
#
# 1:l     2:TT                     3:EE                     4:TE                     5:BB                     6:phiphi                 7:TPhi                   8:Ephi               
    2       1.381334709931e-10       4.175800840558e-15       3.515721364521e-13       0.000000000000e+00       8.285283496454e-09       4.560779509649e-10      -1.840594018227e-12 
    3       1.306077112861e-10       5.350742362539e-15       3.951596945726e-13       0.000000000000e+00       5.086969463398e-09       3.225663904174e-10      -1.393858925568e-12 
    4       1.235419413053e-10       4.626392687379e-15       3.695391989761e-13       0.000000000000e+00       3.523005422682e-09       2.438414649550e-10      -9.122149147436e-13 
    5       1.182577391335e-10       3.084748225447e-15       3.146954485034e-13       0.000000000000e+00       2.621532860549e-09       1.923926746383e-10      -5.067069640035e-13 
    6       1.146360913656e-10       1.723924198761e-15       2.534501697638e-13       0.000000000000e+00       2.042598681518e-09       1.563935126419e-10      -2.080044572873e-13 
    7       1.122776117140e-10       9.312889438459e-16       1.989999911000e-13       0.000000000000e+00       1.644358132315e-09       1.299928948179e-10      -1.760513359702e-14 
    8       1.109021951194e-10       6.009960170777e-16       1.571176962342e-13       0.000000000000e+00       1.356587954511e-09       1.099880940170e-10       7.943388953512e-14 
    9       1.102618492429e-10       4.823871735035e-16       1.290830436922e-13       0.000000000000e+00       1.140650458261e-09       9.448130040035e-11       1.064508341248e-13 
   10       1.101263960679e-10       4.107384280652e-16       1.135723474634e-13       0.000000000000e+00       9.737498428184e-10       8.220556018082e-11       8.929035916368e-14 
   11       1.104368196223e-10       3.446470809702e-16       1.079281732867e-13       0.000000000000e+00       8.334340263115e-10       7.301873159642e-11       5.204003385678e-14 
   12       1.110419195707e-10       2.997660116731e-16       1.090937995354e-13       0.000000000000e+00       7.283993370288e-10       6.456519448068e-11       1.228064637423e-14 
   13       1.118911556801e-10       2.870981553545e-16       1.143864534471e-13       0.000000000000e+00       6.421511928044e-10       5.769912773548e-11      -1.799091327484e-14 
   14       1.129369008189e-10       2.986751424858e-16       1.217850484210e-13       0.000000000000e+00       5.703770612985e-10       5.171892349322e-11      -3.451579666210e-14 
   15       1.141663007006e-10       3.227551536230e-16       1.300011276490e-13       0.000000000000e+00       5.099531106302e-10       4.668838406008e-11      -3.750152863674e-14 
   16       1.155045344157e-10       3.568124223047e-16       1.383720913840e-13       0.000000000000e+00       4.585680020238e-10       4.235250904847e-11      -3.091012265778e-14 
   17       1.169786808683e-10       4.063828872988e-16       1.466759455798e-13       0.000000000000e+00       4.144792383334e-10       3.856852170500e-11      -1.993881974332e-14 
   18       1.185257609931e-10       4.768950617091e-16       1.551739496131e-13       0.000000000000e+00       3.762096059388e-10       3.526796878788e-11      -9.474301024083e-15 
   19       1.201571147035e-10       5.686750034193e-16       1.640894432276e-13       0.000000000000e+00       3.431419538216e-10       3.240365106648e-11      -2.117439715711e-15 
   20       1.218654369158e-10       6.797227403815e-16       1.735623363348e-13       0.000000000000e+00       3.140160847580e-10       2.986125093992e-11       4.240373503524e-16 
   21       1.236520306716e-10       8.094023293705e-16       1.835436327336e-13       0.000000000000e+00       2.883741728219e-10       2.759473759596e-11      -1.286351862615e-15 
   22       1.254908947585e-10       9.572264593004e-16       1.938451180683e-13       0.000000000000e+00       2.655991787032e-10       2.554707294675e-11      -5.504354972468e-15 
   23       1.273884034014e-10       1.123365167384e-15       2.041438432989e-13       0.000000000000e+00       2.453864494702e-10       2.370973350941e-11      -1.047658213659e-14 
   24       1.293387982365e-10       1.308034796251e-15       2.140273898962e-13       0.000000000000e+00       2.272747162908e-10       2.206606300018e-11      -1.433563261613e-14 
   25       1.313368517907e-10       1.511450286888e-15       2.231880440004e-13       0.000000000000e+00       2.110184619353e-10       2.059378775265e-11      -1.626998040054e-14 
   26       1.333648828755e-10       1.733981687065e-15       2.313620965696e-13       0.000000000000e+00       1.962997047407e-10       1.925601423055e-11      -1.595360382275e-14 
   27       1.354324974069e-10       1.977260461157e-15       2.384779396270e-13       0.000000000000e+00       1.830422249627e-10       1.804349094679e-11      -1.389855576329e-14 
   28       1.375424050625e-10       2.243543864856e-15       2.445470974342e-13       0.000000000000e+00       1.710854486096e-10       1.694085245246e-11      -1.110844215046e-14 
   29       1.396837152416e-10       2.535113313518e-15       2.496120631537e-13       0.000000000000e+00       1.601391468591e-10       1.592175971758e-11      -8.703014082266e-15 
   30       1.418630178623e-10       2.853060999416e-15       2.537211290264e-13       0.000000000000e+00       1.501430176971e-10       1.498516604191e-11      -7.071272475785e-15 
   31       1.440820013769e-10       3.198012985986e-15       2.569481510595e-13       0.000000000000e+00       1.410228917472e-10       1.413112931546e-11      -6.393868093533e-15 
   32       1.463325919417e-10       3.570541609729e-15       2.593608461899e-13       0.000000000000e+00       1.326345193079e-10       1.335265716948e-11      -6.758714670888e-15 
   33       1.486142700780e-10       3.971584445331e-15       2.608785963967e-13       0.000000000000e+00       1.249322482842e-10       1.264318119175e-11      -7.813507083505e-15 
   34       1.509206918085e-10       4.402169486240e-15       2.613608428874e-13       0.000000000000e+00       1.178479106043e-10       1.199038743548e-11      -8.970498328734e-15 
   35       1.532405909285e-10       4.863288333306e-15       2.606581706434e-13       0.000000000000e+00       1.112761140004e-10       1.137846272235e-11      -9.638901980254e-15 
   36       1.555809386782e-10       5.355842998428e-15       2.586681244441e-13       0.000000000000e+00       1.051998290508e-10       1.080531550458e-11      -9.756066331904e-15 
   37       1.579503294246e-10       5.880674973986e-15       2.552969672397e-13       0.000000000000e+00       9.960003732096e-11       1.027050720107e-11      -9.436615546556e-15 
   38       1.603520146557e-10       6.438574346380e-15       2.504442548836e-13       0.000000000000e+00       9.441776162913e-11       9.770288541566e-12      -8.835553007324e-15 
   39       1.627849871384e-10       7.030267808240e-15       2.440271431646e-13       0.000000000000e+00       8.957534304222e-11       9.299384944983e-12      -8.127129144622e-15 
   40       1.652492628992e-10       7.656387260316e-15       2.360645027252e-13       0.000000000000e+00       8.505796675722e-11       8.857851756490e-12      -7.425540406830e-15 
   41       1.677413094843e-10       8.317483976014e-15       2.266206445107e-13       0.000000000000e+00       8.085376333699e-11       8.446028800163e-12      -6.842170339068e-15 
   42       1.702519527225e-10       9.014031305567e-15       2.157843573213e-13       0.000000000000e+00       7.692948242651e-11       8.062488305698e-12      -6.508486283993e-15 
   43       1.727708391879e-10       9.746486148693e-15       2.036353471030e-13       0.000000000000e+00       7.324279329484e-11       7.704736312349e-12      -6.535449902156e-15 
   44       1.753027258746e-10       1.051550704870e-14       1.901277417157e-13       0.000000000000e+00       6.978802616683e-11       7.371948554555e-12      -6.873929004253e-15 
   45       1.778553877240e-10       1.132179643699e-14       1.751726163812e-13       0.000000000000e+00       6.656166460060e-11       7.062824135490e-12      -7.412679764584e-15 
   46       1.804348723589e-10       1.216604017265e-14       1.586689992009e-13       0.000000000000e+00       6.354861168916e-11       6.774703045300e-12      -8.014829749474e-15 
   47       1.830452928002e-10       1.304890717619e-14       1.405030555392e-13       0.000000000000e+00       6.072128715312e-11       6.503464289292e-12      -8.516376154953e-15 
   48       1.856888101828e-10       1.397096094763e-14       1.205706816635e-13       0.000000000000e+00       5.804811873384e-11       6.244715791734e-12      -8.771016374104e-15 
   49       1.883660598062e-10       1.493236548148e-14       9.885471998077e-14       0.000000000000e+00       5.552395362044e-11       5.997998442748e-12      -8.803087333715e-15 
   50       1.910754890452e-10       1.593309582351e-14       7.536810851029e-14       0.000000000000e+00       5.314666833573e-11       5.763592093552e-12      -8.695157687655e-15 
   51       1.938129851088e-10       1.697301420605e-14       5.013274141404e-14       0.000000000000e+00       5.090810972310e-11       5.541292168581e-12      -8.546300451986e-15 
   52       1.965716774499e-10       1.805186518608e-14       2.317984773017e-14       0.000000000000e+00       4.879367134034e-11       5.330373700598e-12      -8.472955137001e-15 
   53       1.993446082811e-10       1.916939447807e-14      -5.463469286495e-15       0.000000000000e+00       4.678688041286e-11       5.129903665353e-12      -8.579084786725e-15 
   54       2.021340051432e-10       2.032575251841e-14      -3.581954953935e-14       0.000000000000e+00       4.488551852736e-11       4.939855062392e-12      -8.855653371435e-15 
   55       2.049440483404e-10       2.152118620094e-14      -6.792585167636e-14       0.000000000000e+00       4.308890797436e-11       4.760216630503e-12      -9.256802297630e-15 
   56       2.077781359489e-10       2.275592458255e-14      -1.018223307011e-13       0.000000000000e+00       4.139305532011e-11       4.590648743598e-12      -9.727877213143e-15 
   57       2.106388064826e-10       2.403017920762e-14      -1.375516395076e-13       0.000000000000e+00       3.979043788678e-11       4.430462049576e-12      -1.020500271392e-14 
   58       2.135276615592e-10       2.534414443232e-14      -1.751593304148e-13       0.000000000000e+00       3.826979023262e-11       4.278596109185e-12      -1.061465705079e-14 
   59       2.164456792624e-10       2.669787960725e-14      -2.146811233749e-13       0.000000000000e+00       3.681920508370e-11       4.133906671009e-12      -1.089121526626e-14 
   60       2.193944148461e-10       2.809092293792e-14      -2.561008001842e-13       0.000000000000e+00       3.543676200298e-11       3.996153916621e-12      -1.103530198590e-14 
   61       2.223749426881e-10       2.952258836510e-14      -2.993828708603e-13       0.000000000000e+00       3.412199403537e-11       3.865206370477e-12      -1.106826232029e-14 
   62       2.253874273298e-10       3.099207221675e-14      -3.444844151716e-13       0.000000000000e+00       3.287269118156e-11       3.740741766269e-12      -1.101556498479e-14 
   63       2.284310593861e-10       3.249844952762e-14      -3.913548457535e-13       0.000000000000e+00       3.168479923249e-11       3.622236148025e-12      -1.090698610566e-14 
   64       2.315039914556e-10       3.404067035881e-14      -4.399356712260e-13       0.000000000000e+00       3.055231860378e-11       3.508952971224e-12      -1.077679302614e-14 
   65       2.346042535988e-10       3.561767434077e-14      -4.901730672991e-13       0.000000000000e+00       2.946895976809e-11       3.400145523265e-12      -1.065619906698e-14 
   66       2.377328690798e-10       3.722877076438e-14      -5.420592165929e-13       0.000000000000e+00       2.843374427634e-11       3.295738492082e-12      -1.054845766139e-14 
   67       2.408912858675e-10       3.887333264533e-14      -5.955993262945e-13       0.000000000000e+00       2.744641259800e-11       3.195771685689e-12      -1.044880657425e-14 
   68       2.440804192890e-10       4.055068523709e-14      -6.507997118216e-13       0.000000000000e+00       2.650572113496e-11       3.100194609883e-12      -1.035169973304e-14 
   69       2.473006153392e-10       4.226010565745e-14      -7.076679182048e-13       0.000000000000e+00       2.560939019151e-11       3.008861536323e-12      -1.025077483682e-14 
   70       2.505516139924e-10       4.400082251502e-14      -7.662128414705e-13       0.000000000000e+00       2.475405194451e-11       2.921526570617e-12      -1.013882096525e-14 
   71       2.538325125116e-10       4.577201553576e-14      -8.264448500224e-13       0.000000000000e+00       2.393519841339e-11       2.837838720393e-12      -1.000774618765e-14 
   72       2.571423493375e-10       4.757278040803e-14      -8.883674232729e-13       0.000000000000e+00       2.314834102983e-11       2.757436933544e-12      -9.850989938708e-15 
   73       2.604820670380e-10       4.940201633570e-14      -9.519499397156e-13       0.000000000000e+00       2.239286265087e-11       2.680267292368e-12      -9.671368209165e-15 
   74       2.638528615970e-10       5.125851612541e-14      -1.017149860562e-12       0.000000000000e+00       2.166881435581e-11       2.606318075552e-12      -9.474682714752e-15 
   75       2.672555730837e-10       5.314099790787e-14      -1.083920678625e-12       0.000000000000e+00       2.097574540686e-11       2.535522578291e-12      -9.267432584629e-15 
   76       2.706906631318e-10       5.504810397022e-14      -1.152211846030e-12       0.000000000000e+00       2.031267888123e-11       2.467756462799e-12      -9.056837786994e-15 
   77       2.741581924179e-10       5.697839958849e-14      -1.221968701930e-12       0.000000000000e+00       1.967808730334e-11       2.402835108807e-12      -8.850862554701e-15 
   78       2.776577981410e-10       5.893037186000e-14      -1.293132400214e-12       0.000000000000e+00       1.906986827699e-11       2.340510964071e-12      -8.658238810867e-15 
   79       2.811886715007e-10       6.090242853576e-14      -1.365639837222e-12       0.000000000000e+00       1.848532011750e-11       2.280470894872e-12      -8.488489594490e-15 
   80       2.847500011317e-10       6.289294934287e-14      -1.439429001217e-12       0.000000000000e+00       1.792181289531e-11       2.222413795969e-12      -8.349685144911e-15 
   81       2.883424416370e-10       6.490045278478e-14      -1.514456249733e-12       0.000000000000e+00       1.737898938477e-11       2.166304771313e-12      -8.241210835770e-15 
   82       2.919668601701e-10       6.692345631271e-14      -1.590681914802e-12       0.000000000000e+00       1.685690365104e-11       2.112160465864e-12      -8.159780160139e-15 
   83       2.956238794545e-10       6.896042621612e-14      -1.668065175377e-12       0.000000000000e+00       1.635534827556e-11       2.059971581588e-12      -8.101572241814e-15 
   84       2.993138638910e-10       7.100977742708e-14      -1.746564085445e-12       0.000000000000e+00       1.587384286612e-11       2.009701714254e-12      -8.062213273127e-15 
   85       3.030369056653e-10       7.306987332478e-14      -1.826135602141e-12       0.000000000000e+00       1.541162256710e-11       1.961286190219e-12      -8.036757952760e-15 
   86       3.067928108564e-10       7.513902553995e-14      -1.906735613870e-12       0.000000000000e+00       1.496762656956e-11       1.914630903222e-12      -8.019670923558e-15 
   87       3.105810855433e-10       7.721549375935e-14      -1.988318968412e-12       0.000000000000e+00       1.454048662142e-11       1.869611151172e-12      -8.004808210345e-15 
   88       3.144009219136e-10       7.929748553018e-14      -2.070839501047e-12       0.000000000000e+00       1.412851553762e-11       1.826070472937e-12      -7.985398657735e-15 
   89       3.182515095907e-10       8.138318109833e-14      -2.154248599549e-12       0.000000000000e+00       1.373010901832e-11       1.783859280998e-12      -7.955497094345e-15 
   90       3.221330558692e-10       8.347081281460e-14      -2.238490579936e-12       0.000000000000e+00       1.334504838571e-11       1.742960240130e-12      -7.914645529830e-15 
   91       3.260459006704e-10       8.555859788240e-14      -2.323506633748e-12       0.000000000000e+00       1.297338198595e-11       1.703380504942e-12      -7.863912350301e-15 
   92       3.299901966754e-10       8.764471460982e-14      -2.409236232704e-12       0.000000000000e+00       1.261502484913e-11       1.665113115772e-12      -7.804489120662e-15 
   93       3.339659003052e-10       8.972730258913e-14      -2.495617134890e-12       0.000000000000e+00       1.226975339139e-11       1.628136431665e-12      -7.737694070763e-15 
   94       3.379727626998e-10       9.180446287625e-14      -2.582585390960e-12       0.000000000000e+00       1.193720011689e-11       1.592413563359e-12      -7.664975581547e-15 
   95       3.420103206992e-10       9.387425817027e-14      -2.670075350330e-12       0.000000000000e+00       1.161684831990e-11       1.557891806267e-12      -7.587915671197e-15 
   96       3.460778878225e-10       9.593471299293e-14      -2.758019667372e-12       0.000000000000e+00       1.130802678677e-11       1.524502073459e-12      -7.508233481291e-15 
   97       3.501745452479e-10       9.798381386810e-14      -2.846349307615e-12       0.000000000000e+00       1.100990449804e-11       1.492158328646e-12      -7.427788762946e-15 
   98       3.542991327931e-10       1.000195095013e-13      -2.934993553934e-12       0.000000000000e+00       1.072148533042e-11       1.460757019160e-12      -7.348585362968e-15 
   99       3.584505378515e-10       1.020397575465e-13      -3.023881389065e-12       0.000000000000e+00       1.044183636509e-11       1.430201764508e-12      -7.272369462477e-15 
  100       3.626286283974e-10       1.040426720773e-13      -3.112945853171e-12       0.000000000000e+00       1.017082116294e-11       1.400482637771e-12      -7.199351825934e-15 
  101       3.668334359912e-10       1.060263974345e-13      -3.202120317866e-12       0.000000000000e+00       9.908460992629e-12       1.371607112620e-12      -7.129310203958e-15 
  102       3.710648642725e-10       1.079890642367e-13      -3.291337187557e-12       0.000000000000e+00       9.654708054979e-12       1.343575551988e-12      -7.061977026879e-15 
  103       3.753226835512e-10       1.099287901249e-13      -3.380527922322e-12       0.000000000000e+00       9.409443016638e-12       1.316380947172e-12      -6.997037978793e-15 
  104       3.796065253990e-10       1.118436805063e-13      -3.469623060785e-12       0.000000000000e+00       9.172472543693e-12       1.290008656952e-12      -6.934130571626e-15 
  105       3.839158772413e-10       1.137318292987e-13      -3.558552243001e-12       0.000000000000e+00       8.943526835296e-12       1.264436146697e-12      -6.872842719183e-15 
  106       3.882500769482e-10       1.155913196749e-13      -3.647244233330e-12       0.000000000000e+00       8.722257157294e-12       1.239632727474e-12      -6.812711311215e-15 
  107       3.926083074266e-10       1.174202248062e-13      -3.735626943314e-12       0.000000000000e+00       8.508233375856e-12       1.215559295166e-12      -6.753220787470e-15 
